Time[ps]      Etot[eV]     Epot[eV]     Ekin[eV]    T[K]
0.0000            5.431       -0.614        6.044   433.0
0.0050            5.432       -0.452        5.884   421.5
0.0100            5.436        0.012        5.424   388.5
0.0150            5.441        0.718        4.724   338.4
0.0200            5.449        1.572        3.877   277.7
0.0250            5.456        2.458        2.998   214.8
0.0300            5.463        3.252        2.211   158.4
0.0350            5.467        3.848        1.619   116.0
0.0400            5.468        4.181        1.286    92.1
0.0450            5.465        4.240        1.225    87.7
0.0500            5.460        4.067        1.393    99.8
0.0550            5.455        3.739        1.715   122.9
0.0600            5.450        3.346        2.104   150.7
0.0650            5.446        2.967        2.480   177.6
0.0700            5.445        2.656        2.789   199.8
0.0750            5.445        2.441        3.004   215.2
0.0800            5.446        2.321        3.125   223.8
0.0850            5.448        2.278        3.170   227.1
0.0900            5.450        2.282        3.169   227.0
0.0950            5.452        2.301        3.150   225.7
0.1000            5.453        2.312        3.141   225.0
0.1050            5.453        2.298        3.155   226.0
0.1100            5.452        2.254        3.198   229.1
0.1150            5.451        2.188        3.264   233.8
0.1200            5.450        2.113        3.337   239.1
0.1250            5.449        2.048        3.401   243.6
0.1300            5.448        2.013        3.436   246.1
0.1350            5.448        2.019        3.428   245.6
0.1400            5.448        2.073        3.375   241.8
0.1450            5.449        2.168        3.281   235.0
0.1500            5.451        2.288        3.162   226.5
0.1550            5.452        2.410        3.042   217.9
0.1600            5.453        2.511        2.942   210.8
0.1650            5.454        2.572        2.882   206.4
0.1700            5.454        2.585        2.869   205.5
0.1750            5.453        2.550        2.903   208.0
0.1800            5.452        2.476        2.977   213.2
0.1850            5.451        2.377        3.075   220.3
0.1900            5.451        2.268        3.182   227.9
0.1950            5.450        2.167        3.283   235.2
0.2000            5.449        2.084        3.365   241.0
0.2050            5.449        2.029        3.420   245.0
0.2100            5.449        2.006        3.444   246.7
0.2150            5.449        2.014        3.436   246.1
0.2200            5.450        2.052        3.398   243.4
0.2250            5.450        2.116        3.334   238.8
0.2300            5.450        2.201        3.249   232.8
0.2350            5.451        2.298        3.153   225.9
0.2400            5.452        2.395        3.056   218.9
0.2450            5.452        2.481        2.971   212.8
0.2500            5.453        2.544        2.909   208.4
0.2550            5.453        2.573        2.880   206.3
0.2600            5.453        2.568        2.885   206.7
0.2650            5.452        2.531        2.921   209.3
0.2700            5.451        2.473        2.978   213.3
0.2750            5.450        2.409        3.041   217.8
0.2800            5.449        2.357        3.092   221.5
0.2850            5.448        2.334        3.115   223.1
0.2900            5.448        2.352        3.096   221.8
0.2950            5.448        2.417        3.032   217.2
0.3000            5.449        2.523        2.926   209.6
0.3050            5.450        2.658        2.793   200.0
0.3100            5.452        2.796        2.656   190.2
0.3150            5.454        2.912        2.542   182.1
0.3200            5.455        2.976        2.479   177.6
0.3250            5.456        2.968        2.487   178.2
0.3300            5.455        2.878        2.578   184.7
0.3350            5.454        2.707        2.748   196.8
0.3400            5.453        2.471        2.981   213.6
0.3450            5.451        2.198        3.253   233.0
0.3500            5.449        1.920        3.529   252.8
0.3550            5.447        1.670        3.777   270.5
0.3600            5.445        1.482        3.964   283.9
0.3650            5.444        1.379        4.065   291.2
0.3700            5.444        1.377        4.067   291.3
0.3750            5.445        1.476        3.969   284.3
0.3800            5.447        1.665        3.782   270.9
0.3850            5.449        1.919        3.530   252.8
0.3900            5.451        2.209        3.242   232.2
0.3950            5.453        2.500        2.953   211.5
0.4000            5.454        2.758        2.696   193.1
0.4050            5.456        2.956        2.500   179.1
0.4100            5.456        3.071        2.385   170.9
0.4150            5.456        3.095        2.361   169.1
0.4200            5.455        3.030        2.425   173.7
0.4250            5.454        2.892        2.562   183.5
0.4300            5.452        2.705        2.747   196.7
0.4350            5.450        2.501        2.949   211.2
0.4400            5.448        2.310        3.138   224.8
0.4450            5.447        2.159        3.288   235.6
0.4500            5.447        2.066        3.380   242.1
0.4550            5.447        2.041        3.406   244.0
0.4600            5.447        2.081        3.367   241.2
0.4650            5.449        2.172        3.277   234.8
0.4700            5.450        2.293        3.157   226.2
0.4750            5.452        2.419        3.032   217.2
0.4800            5.453        2.526        2.927   209.7
0.4850            5.454        2.592        2.861   205.0
0.4900            5.454        2.609        2.845   203.8
0.4950            5.453        2.577        2.876   206.0
0.5000            5.452        2.505        2.946   211.1
0.5050            5.451        2.412        3.039   217.7
0.5100            5.450        2.313        3.137   224.7
0.5150            5.449        2.223        3.226   231.1
0.5200            5.449        2.149        3.300   236.4
0.5250            5.449        2.094        3.355   240.3
0.5300            5.449        2.055        3.394   243.1
0.5350            5.450        2.031        3.418   244.9
0.5400            5.450        2.020        3.429   245.6
0.5450            5.449        2.023        3.427   245.5
0.5500            5.449        2.039        3.410   244.3
0.5550            5.449        2.071        3.378   242.0
0.5600            5.449        2.119        3.331   238.6
0.5650            5.449        2.183        3.267   234.0
0.5700            5.449        2.263        3.186   228.2
0.5750            5.450        2.360        3.089   221.3
0.5800            5.450        2.472        2.978   213.3
0.5850            5.450        2.594        2.856   204.6
0.5900            5.451        2.721        2.730   195.5
0.5950            5.452        2.840        2.612   187.1
0.6000            5.453        2.934        2.519   180.4
0.6050            5.454        2.988        2.466   176.6
0.6100            5.455        2.987        2.468   176.8
0.6150            5.454        2.923        2.532   181.4
0.6200            5.454        2.798        2.656   190.2
0.6250            5.453        2.625        2.828   202.5
0.6300            5.451        2.423        3.029   216.9
0.6350            5.450        2.213        3.237   231.9
0.6400            5.449        2.018        3.431   245.7
0.6450            5.448        1.856        3.592   257.3
0.6500            5.447        1.741        3.706   265.5
0.6550            5.447        1.685        3.762   269.5
0.6600            5.446        1.696        3.751   268.7
0.6650            5.447        1.778        3.668   262.8
0.6700            5.447        1.930        3.517   252.0
0.6750            5.448        2.139        3.309   237.1
0.6800            5.450        2.385        3.065   219.6
0.6850            5.452        2.636        2.816   201.7
0.6900            5.454        2.859        2.595   185.9
0.6950            5.456        3.020        2.436   174.5
0.7000            5.456        3.096        2.360   169.1
0.7050            5.456        3.075        2.381   170.6
0.7100            5.455        2.959        2.496   178.8
0.7150            5.454        2.761        2.693   192.9
0.7200            5.452        2.506        2.946   211.1
0.7250            5.450        2.222        3.228   231.2
0.7300            5.448        1.946        3.501   250.8
0.7350            5.446        1.714        3.732   267.4
0.7400            5.444        1.557        3.888   278.5
0.7450            5.444        1.500        3.944   282.5
0.7500            5.444        1.554        3.890   278.6
0.7550            5.445        1.713        3.732   267.4
0.7600            5.447        1.955        3.492   250.2
0.7650            5.450        2.244        3.206   229.6
0.7700            5.453        2.538        2.915   208.8
0.7750            5.455        2.791        2.664   190.8
0.7800            5.456        2.969        2.488   178.2
0.7850            5.457        3.048        2.409   172.5
0.7900            5.456        3.025        2.431   174.1
0.7950            5.454        2.915        2.539   181.9
0.8000            5.452        2.746        2.706   193.8
0.8050            5.449        2.555        2.894   207.3
0.8100            5.448        2.377        3.070   219.9
0.8150            5.447        2.241        3.205   229.6
0.8200            5.446        2.164        3.283   235.2
0.8250            5.447        2.148        3.298   236.3
0.8300            5.448        2.187        3.261   233.6
0.8350            5.450        2.260        3.190   228.5
0.8400            5.451        2.343        3.109   222.7
0.8450            5.452        2.410        3.042   217.9
0.8500            5.453        2.445        3.008   215.5
0.8550            5.453        2.440        3.013   215.8
0.8600            5.452        2.400        3.052   218.6
0.8650            5.451        2.338        3.112   223.0
0.8700            5.450        2.270        3.180   227.8
0.8750            5.449        2.207        3.242   232.3
0.8800            5.449        2.158        3.291   235.7
0.8850            5.449        2.127        3.322   238.0
0.8900            5.449        2.114        3.336   238.9
0.8950            5.449        2.119        3.330   238.6
0.9000            5.449        2.144        3.305   236.8
0.9050            5.449        2.189        3.260   233.5
0.9100            5.449        2.254        3.196   228.9
0.9150            5.450        2.332        3.119   223.4
0.9200            5.451        2.411        3.040   217.8
0.9250            5.452        2.477        2.975   213.1
0.9300            5.453        2.516        2.936   210.3
0.9350            5.453        2.518        2.935   210.3
0.9400            5.452        2.479        2.973   213.0
0.9450            5.451        2.410        3.041   217.9
0.9500            5.450        2.326        3.124   223.7
0.9550            5.449        2.251        3.198   229.0
0.9600            5.448        2.205        3.242   232.3
0.9650            5.447        2.204        3.243   232.3
0.9700            5.448        2.252        3.196   228.9
0.9750            5.449        2.341        3.108   222.6
0.9800            5.450        2.453        2.997   214.7
0.9850            5.452        2.564        2.888   206.9
0.9900            5.453        2.647        2.806   201.0
0.9950            5.454        2.682        2.772   198.6
1.0000            5.454        2.658        2.796   200.3
1.0050            5.453        2.577        2.876   206.0
1.0100            5.452        2.453        2.999   214.8
1.0150            5.450        2.309        3.141   225.0
1.0200            5.449        2.171        3.277   234.8
1.0250            5.447        2.064        3.383   242.4
1.0300            5.447        2.007        3.439   246.4
1.0350            5.446        2.013        3.433   245.9
1.0400            5.447        2.083        3.363   240.9
1.0450            5.448        2.211        3.237   231.9
1.0500            5.450        2.376        3.073   220.2
1.0550            5.452        2.553        2.899   207.6
1.0600            5.454        2.708        2.745   196.6
1.0650            5.455        2.812        2.643   189.3
1.0700            5.456        2.840        2.616   187.4
1.0750            5.455        2.785        2.670   191.3
1.0800            5.454        2.654        2.799   200.5
1.0850            5.451        2.472        2.979   213.4
1.0900            5.449        2.273        3.177   227.6
1.0950            5.447        2.090        3.357   240.5
1.1000            5.446        1.956        3.491   250.0
1.1050            5.446        1.890        3.556   254.7
1.1100            5.446        1.899        3.547   254.1
1.1150            5.447        1.977        3.470   248.6
1.1200            5.449        2.103        3.347   239.7
1.1250            5.451        2.246        3.205   229.6
1.1300            5.453        2.378        3.075   220.3
1.1350            5.453        2.473        2.981   213.5
1.1400            5.453        2.519        2.935   210.2
1.1450            5.453        2.516        2.936   210.3
1.1500            5.452        2.476        2.976   213.2
1.1550            5.451        2.413        3.037   217.6
1.1600            5.450        2.346        3.104   222.4
1.1650            5.449        2.288        3.161   226.4
1.1700            5.449        2.250        3.200   229.2
1.1750            5.449        2.234        3.215   230.3
1.1800            5.450        2.239        3.211   230.0
1.1850            5.450        2.259        3.192   228.6
1.1900            5.450        2.287        3.164   226.6
1.1950            5.450        2.319        3.131   224.3
1.2000            5.450        2.355        3.096   221.7
1.2050            5.450        2.395        3.055   218.8
1.2100            5.450        2.442        3.008   215.5
1.2150            5.451        2.492        2.958   211.9
1.2200            5.451        2.542        2.909   208.4
1.2250            5.451        2.582        2.869   205.5
1.2300            5.452        2.609        2.843   203.7
1.2350            5.452        2.616        2.835   203.1
1.2400            5.451        2.606        2.845   203.8
1.2450            5.451        2.580        2.871   205.7
1.2500            5.451        2.544        2.907   208.2
1.2550            5.451        2.502        2.948   211.2
1.2600            5.450        2.460        2.990   214.2
1.2650            5.450        2.421        3.029   217.0
1.2700            5.450        2.386        3.065   219.5
1.2750            5.450        2.354        3.096   221.8
1.2800            5.451        2.323        3.128   224.0
1.2850            5.451        2.290        3.161   226.4
1.2900            5.451        2.251        3.200   229.2
1.2950            5.451        2.207        3.244   232.3
1.3000            5.450        2.160        3.290   235.7
1.3050            5.450        2.115        3.334   238.8
1.3100            5.449        2.081        3.368   241.3
1.3150            5.449        2.064        3.384   242.4
1.3200            5.449        2.070        3.379   242.0
1.3250            5.449        2.096        3.353   240.2
1.3300            5.450        2.137        3.313   237.3
1.3350            5.450        2.184        3.267   234.0
1.3400            5.450        2.229        3.221   230.7
1.3450            5.450        2.271        3.179   227.7
1.3500            5.450        2.311        3.139   224.9
1.3550            5.450        2.352        3.098   221.9
1.3600            5.450        2.397        3.053   218.7
1.3650            5.450        2.445        3.005   215.3
1.3700            5.451        2.492        2.959   212.0
1.3750            5.452        2.529        2.923   209.3
1.3800            5.452        2.547        2.905   208.1
1.3850            5.452        2.539        2.913   208.7
1.3900            5.452        2.504        2.948   211.2
1.3950            5.451        2.447        3.004   215.2
1.4000            5.450        2.380        3.070   219.9
1.4050            5.449        2.320        3.129   224.2
1.4100            5.448        2.282        3.166   226.8
1.4150            5.448        2.280        3.168   226.9
1.4200            5.448        2.317        3.131   224.3
1.4250            5.449        2.389        3.060   219.2
1.4300            5.450        2.480        2.970   212.7
1.4350            5.452        2.572        2.880   206.3
1.4400            5.453        2.642        2.810   201.3
1.4450            5.453        2.676        2.777   198.9
1.4500            5.453        2.665        2.788   199.7
1.4550            5.452        2.611        2.841   203.5
1.4600            5.451        2.525        2.926   209.6
1.4650            5.450        2.423        3.027   216.8
1.4700            5.449        2.322        3.127   224.0
1.4750            5.449        2.238        3.211   230.0
1.4800            5.448        2.181        3.268   234.1
1.4850            5.448        2.154        3.294   236.0
1.4900            5.449        2.159        3.290   235.7
1.4950            5.449        2.187        3.262   233.7
1.5000            5.450        2.231        3.219   230.6
1.5050            5.451        2.278        3.173   227.3
1.5100            5.452        2.315        3.136   224.7
1.5150            5.452        2.332        3.120   223.5
1.5200            5.452        2.321        3.131   224.3
1.5250            5.452        2.281        3.170   227.1
1.5300            5.451        2.218        3.233   231.6
1.5350            5.450        2.142        3.308   236.9
1.5400            5.449        2.070        3.379   242.0
1.5450            5.448        2.020        3.427   245.5
1.5500            5.447        2.010        3.437   246.2
1.5550            5.446        2.053        3.393   243.1
1.5600            5.447        2.155        3.292   235.8
1.5650            5.448        2.311        3.137   224.7
1.5700            5.449        2.503        2.946   211.1
1.5750            5.452        2.704        2.748   196.8
1.5800            5.454        2.877        2.577   184.6
1.5850            5.456        2.986        2.470   176.9
1.5900            5.456        3.004        2.453   175.7
1.5950            5.456        2.920        2.536   181.6
1.6000            5.454        2.746        2.707   193.9
1.6050            5.451        2.514        2.937   210.4
1.6100            5.448        2.264        3.184   228.1
1.6150            5.446        2.042        3.404   243.8
1.6200            5.445        1.883        3.561   255.1
1.6250            5.444        1.810        3.634   260.3
1.6300            5.445        1.830        3.615   259.0
1.6350            5.446        1.933        3.513   251.6
1.6400            5.448        2.100        3.348   239.8
1.6450            5.450        2.300        3.151   225.7
1.6500            5.453        2.497        2.956   211.7
1.6550            5.454        2.657        2.798   200.4
1.6600            5.455        2.752        2.703   193.6
1.6650            5.455        2.768        2.687   192.5
1.6700            5.454        2.706        2.748   196.8
1.6750            5.452        2.585        2.868   205.4
1.6800            5.450        2.432        3.019   216.2
1.6850            5.448        2.279        3.169   227.0
1.6900            5.447        2.154        3.293   235.9
1.6950            5.447        2.074        3.373   241.6
1.7000            5.448        2.043        3.404   243.8
1.7050            5.448        2.056        3.393   243.0
1.7100            5.450        2.097        3.352   240.1
